#Energy(eV)    Se(eV/A)   Range(A)
   1.0000000000000000E+00   0.0000000000000000E+00   0.0000000000000000E+00
   2.0000000000000000E+00   2.7588740910216045E-03   0.0000000000000000E+00
   3.0000000000000000E+00   6.7805778870308562E-03   0.0000000000000000E+00
   4.0000000000000000E+00   1.1044649666998871E-02   0.0000000000000000E+00
   5.0000000000000000E+00   1.5622989310070789E-02   0.0000000000000000E+00
   6.0000000000000000E+00   2.0559992290737562E-02   0.0000000000000000E+00
   7.0000000000000000E+00   2.5882000787396397E-02   0.0000000000000000E+00
   8.0000000000000000E+00   3.1601393850040120E-02   0.0000000000000000E+00
   8.1490000000000009E+00   3.2618113560115007E-02   0.0000000000000000E+00
   8.1509999999999998E+00   3.2615321559115396E-02   0.0000000000000000E+00
   9.0000000000000000E+00   3.7730472689256826E-02   0.0000000000000000E+00
   1.0000000000000000E+01   4.4284992715537111E-02   0.0000000000000000E+00
   1.1000000000000000E+01   5.1286033321517349E-02   0.0000000000000000E+00
   1.2000000000000000E+01   6.0301827981447023E-02   1.8040865578300799E+01
   1.3000000000000000E+01   6.8379384655234840E-02   3.3644633539760768E+01
   1.3459000000000000E+01   7.1017416612722234E-02   4.0232509898561993E+01
   1.3460999999999999E+01   7.1014518008829047E-02   4.0260672579105083E+01
   1.4000000000000000E+01   7.7008856115443822E-02   4.7555268725064380E+01
   1.5000000000000000E+01   8.6232139348961692E-02   5.9846330618902549E+01
   1.6000000000000000E+01   9.6099034704104400E-02   7.0847598674536812E+01
   1.7000000000000000E+01   1.0666586260563658E-01   8.0738099903393845E+01
   1.8000000000000000E+01   1.1799901749007148E-01   8.9662958655427062E+01
   1.9000000000000000E+01   1.3017570211956678E-01   9.7741244647360816E+01
   2.0000000000000000E+01   1.4328772088849240E-01   1.0507168976058841E+02
   2.1000000000000000E+01   1.5744137587434268E-01   1.1173695755375391E+02
   2.2000000000000000E+01   1.7548710415407201E-01   1.1776195501940776E+02
   2.3000000000000000E+01   1.9230862302417198E-01   1.2321115464701768E+02
   2.4000000000000000E+01   2.1064211890674039E-01   1.2818483637808686E+02
   2.5000000000000000E+01   2.3070034684971660E-01   1.3272584429562377E+02
   2.6000000000000000E+01   2.5274123043596319E-01   1.3687146590637801E+02
   2.7000000000000000E+01   2.7707669959116216E-01   1.4065432839551144E+02
   2.8000000000000000E+01   3.0408691730688503E-01   1.4410314960333105E+02
   2.9000000000000000E+01   3.3424409061309357E-01   1.4724332908922227E+02
   3.0000000000000000E+01   3.6813182677169809E-01   1.5009745095673566E+02
   3.1000000000000000E+01   4.0648371074099671E-01   1.5268572165568023E+02
   3.2000000000000000E+01   4.5022287859310139E-01   1.5502634431283087E+02
   3.3000000000000000E+01   5.0818819657585812E-01   1.5712079285080009E+02
   3.4000000000000000E+01   5.6763838604302108E-01   1.5898552279621489E+02
   3.5000000000000000E+01   6.3721004999626829E-01   1.6065103588183931E+02
   3.6000000000000000E+01   7.1917010063590237E-01   1.6213095230518107E+02
   3.7000000000000000E+01   8.1603708764536131E-01   1.6343891536607660E+02
   3.8000000000000000E+01   9.3018054887387669E-01   1.6458916266906650E+02
   3.9000000000000000E+01   1.0630522540794243E+00   1.6559703648774996E+02
   4.0000000000000000E+01   1.2141919805531527E+00   1.6647917674662659E+02
   4.1000000000000000E+01   1.3808395609187620E+00   1.6725307178808239E+02
   4.2000000000000000E+01   1.5691343019509221E+00   1.6793381737562814E+02
   4.3000000000000000E+01   1.7515350059299755E+00   1.6853792830732834E+02
   4.4000000000000000E+01   1.9150940855728555E+00   1.6908447597793818E+02
   4.5000000000000000E+01   2.1203974663058918E+00   1.6958136460335774E+02
   4.6000000000000000E+01   2.2963697308657181E+00   1.7003490442271342E+02
   4.7000000000000000E+01   2.4358135338678442E+00   1.7045790962334704E+02
   4.8000000000000000E+01   2.5738650569545229E+00   1.7085744023000089E+02
   4.9000000000000000E+01   2.7500201583257877E+00   1.7123351745748019E+02
   5.0000000000000000E+01   2.8841551411378803E+00   1.7158869529979196E+02
   5.1000000000000000E+01   2.9745737903296523E+00   1.7193014760134037E+02
   5.2000000000000000E+01   3.1025183316777691E+00   1.7225939831193662E+02
   5.3000000000000000E+01   3.2272940958710103E+00   1.7257548626589337E+02
   5.4000000000000000E+01   3.3078638818848489E+00   1.7288156976763543E+02
   5.5000000000000000E+01   3.3853559132794437E+00   1.7318041967590355E+02
   5.6000000000000000E+01   3.4598895480195511E+00   1.7347262791782384E+02
   5.7000000000000000E+01   3.5717632857532515E+00   1.7375712808200285E+02
   5.8000000000000000E+01   3.6404262231750648E+00   1.7403446151729773E+02
   5.9000000000000000E+01   3.6669001487835526E+00   1.7430816302586186E+02
   6.0000000000000000E+01   3.7307452561769283E+00   1.7457853945936193E+02
   6.1000000000000000E+01   3.7921854495070404E+00   1.7484441103105959E+02
   6.2000000000000000E+01   3.8513212508874046E+00   1.7510608669901745E+02
   6.3000000000000000E+01   3.9082470096677948E+00   1.7536384687050469E+02
   6.4000000000000000E+01   3.9253977500779755E+00   1.7561915709302053E+02
   6.5000000000000000E+01   3.9785642488161539E+00   1.7587220619645441E+02
   6.6000000000000000E+01   3.9929474423607916E+00   1.7612310045449186E+02
   6.7000000000000000E+01   4.0427028260108751E+00   1.7637200086872960E+02
   6.8000000000000000E+01   4.0546457755075256E+00   1.7661899583575106E+02
   6.9000000000000000E+01   4.1012921239298521E+00   1.7686422396865817E+02
   7.0000000000000000E+01   4.1110717012006726E+00   1.7710775955460772E+02
   7.1000000000000000E+01   4.1200646089332000E+00   1.7735073966233122E+02
   7.2000000000000000E+01   4.1627362149510754E+00   1.7759221028642332E+02
   7.3000000000000000E+01   4.1699116012297539E+00   1.7783223020892180E+02
   7.4000000000000000E+01   4.1764469597517548E+00   1.7807185581470256E+02
   7.5000000000000000E+01   4.1823829219512971E+00   1.7831112387457583E+02
   7.6000000000000000E+01   4.1877612174529268E+00   1.7855006848442360E+02
   7.7000000000000000E+01   4.2251142471171077E+00   1.7878780401683582E+02
   7.8000000000000000E+01   4.2291025810220368E+00   1.7902437240463161E+02
   7.9000000000000000E+01   4.2326285853052719E+00   1.7926073069916558E+02
   8.0000000000000000E+01   4.2357260007990796E+00   1.7949690411954262E+02
   8.1000000000000000E+01   4.2384144346497274E+00   1.7973291628107475E+02
   8.2000000000000000E+01   4.2407208630939941E+00   1.7996878940701879E+02
   8.3000000000000000E+01   4.2426666825365453E+00   1.8020454429791135E+02
   8.4000000000000000E+01   4.2442729114257061E+00   1.8044020051408859E+02
   8.5000000000000000E+01   4.2455622919035223E+00   1.8067577635251556E+02
   8.6000000000000000E+01   4.2465483613939012E+00   1.8091128906644718E+02
   8.7000000000000000E+01   4.2472509572857966E+00   1.8114675495616819E+02
   8.8000000000000000E+01   4.2476826175539264E+00   1.8138218940513053E+02
   8.9000000000000000E+01   4.2478637196649380E+00   1.8161760687229764E+02
   9.0000000000000000E+01   4.2477683710734651E+00   1.8185302196312205E+02
   9.1000000000000000E+01   4.2195310135620749E+00   1.8208922741094355E+02
   9.2000000000000000E+01   4.2191049043652926E+00   1.8232623254122186E+02
   9.3000000000000000E+01   4.2183430104289839E+00   1.8256327104344490E+02
   9.4000000000000000E+01   4.2172671004512585E+00   1.8280036118941493E+02
   9.5000000000000000E+01   4.2159024551539410E+00   1.8303751995151302E+02
   9.6000000000000000E+01   4.2142661382382105E+00   1.8327476313985437E+02
   9.7000000000000000E+01   4.1866813935826528E+00   1.8351283409027590E+02
   9.8000000000000000E+01   4.1848844973023471E+00   1.8375173803228759E+02
   9.9000000000000000E+01   4.1828599587502051E+00   1.8399075108145266E+02
   1.0000000000000000E+02   4.1806233623755809E+00   1.8422988590916006E+02
   1.0399900000000000E+02   4.1461971171023944E+00   1.8519041300743100E+02
   1.0400100000000000E+02   4.1461447781348237E+00   1.8519089538020950E+02
   1.1000000000000000E+02   4.0837561846256207E+00   1.8664883388848384E+02
   1.2000000000000000E+02   3.9717633241902828E+00   1.8913208358884259E+02
   1.3000000000000000E+02   3.8506936864626060E+00   1.9168943762576680E+02
   1.4000000000000000E+02   3.7417530179749243E+00   1.9432417702526172E+02
   1.5000000000000000E+02   3.6436303690222127E+00   1.9703270682839582E+02
   1.5399900000000000E+02   3.5919477536272679E+00   1.9813813447289289E+02
   1.5400100000000000E+02   3.5919135501271842E+00   1.9813869127651574E+02
   1.6000000000000000E+02   3.5403777851157989E+00   1.9982098745489716E+02
   1.7000000000000000E+02   3.4495665969686420E+00   2.0268272356557790E+02
   1.8000000000000000E+02   3.4668726192735950E+00   2.0557440302539146E+02
   1.9000000000000000E+02   3.3820474345075611E+00   2.0849501943978018E+02
   2.0000000000000000E+02   3.3042319034865093E+00   2.1148662482437575E+02
   2.1000000000000000E+02   3.2376288088354563E+00   2.1454417590583176E+02
   2.2000000000000000E+02   3.1748469576590681E+00   2.1766339506874439E+02
   2.3000000000000000E+02   3.1196931948580442E+00   2.2084099583733604E+02
   2.4000000000000000E+02   3.0747993505402875E+00   2.2406983991117579E+02
   2.5000000000000000E+02   3.0360537729762127E+00   2.2734283693057105E+02
   2.6000000000000000E+02   3.0068315502764076E+00   2.3065259156622852E+02
   2.7000000000000000E+02   2.9796478118524092E+00   2.3399352221779355E+02
   2.8000000000000000E+02   2.9581035464698031E+00   2.3736184502142962E+02
   2.9000000000000000E+02   2.9374607553974865E+00   2.4075426755750286E+02
   3.0000000000000000E+02   2.9153660843324074E+00   2.4417146843678398E+02
   3.1000000000000000E+02   2.8965778263522628E+00   2.4761269383679348E+02
   3.2000000000000000E+02   2.8768601639577671E+00   2.5107687467899589E+02
   3.3000000000000000E+02   2.8646166953323782E+00   2.5456031481787730E+02
   3.4000000000000000E+02   2.8466430485783709E+00   2.5806220388925948E+02
   3.5000000000000000E+02   2.8280848848967119E+00   2.6158663962191815E+02
   3.6000000000000000E+02   2.8113532581807190E+00   2.6513312342820711E+02
   3.7000000000000000E+02   2.7917166106176277E+00   2.6870263908997680E+02
   3.8000000000000000E+02   2.7748388777054318E+00   2.7229555824846625E+02
   3.9000000000000000E+02   2.7561218523144291E+00   2.7591160797548974E+02
   4.0000000000000000E+02   2.7400626025739587E+00   2.7955052710466197E+02
   4.1000000000000000E+02   2.7220654367212997E+00   2.8321214341716831E+02
   4.2000000000000000E+02   2.7066277912184926E+00   2.8689630107640863E+02
   4.3000000000000000E+02   2.6892013478585803E+00   2.9060290632552915E+02
   4.4000000000000000E+02   2.6720206288086428E+00   2.9433343743987086E+02
   4.5000000000000000E+02   2.6582528500973712E+00   2.9808561516802325E+02
   4.6000000000000000E+02   2.6380210387726315E+00   3.0186191002611002E+02
   4.7000000000000000E+02   2.6242933191903806E+00   3.0566254502150736E+02
   4.8000000000000000E+02   2.6060379057824581E+00   3.0948644121206695E+02
   4.9000000000000000E+02   2.5931556696556357E+00   3.1333321523465492E+02
   5.0000000000000000E+02   2.5758585821672462E+00   3.1720246824557847E+02
   5.1000000000000000E+02   2.5576826776911363E+00   3.2109846317581065E+02
   5.2000000000000000E+02   2.5432377283327829E+00   3.2501935564123914E+02
   5.3000000000000000E+02   2.5231948189799023E+00   3.2896696825031631E+02
   5.4000000000000000E+02   2.5120414111679290E+00   3.3293899601965126E+02
   5.5000000000000000E+02   2.4927557299795886E+00   3.3693522132513652E+02
   5.6000000000000000E+02   2.4778765431211101E+00   3.4095889037042650E+02
   5.7000000000000000E+02   2.4612583734628979E+00   3.4500822831114192E+02
   5.8000000000000000E+02   2.4432033475246420E+00   3.4908620305899575E+02
   5.9000000000000000E+02   2.4318581039314044E+00   3.5318873766639462E+02
   6.0000000000000000E+02   2.4164138169602820E+00   3.5731396069011788E+02
   6.1000000000000000E+02   2.3994641333366307E+00   3.6146694129987810E+02
   6.2000000000000000E+02   2.3828658029772876E+00   3.6564905361606304E+02
   6.3000000000000000E+02   2.3704760491487509E+00   3.6985664829442896E+02
   6.4000000000000000E+02   2.3564135010920801E+00   3.7408779793369820E+02
   6.5000000000000000E+02   2.3407894286163042E+00   3.7834569813101967E+02
   6.6000000000000000E+02   2.3254815467542400E+00   3.8263182196449316E+02
   6.7000000000000000E+02   2.3104813554597268E+00   3.8694596550018338E+02
   6.8000000000000000E+02   2.2957807452899783E+00   3.9128792504795513E+02
   6.9000000000000000E+02   2.2813713386019217E+00   3.9565749762236527E+02
   7.0000000000000000E+02   2.2672448244007342E+00   4.0005448171362087E+02
   7.1000000000000000E+02   2.2533937238457740E+00   4.0447867700075670E+02
   7.2000000000000000E+02   2.2398097557896643E+00   4.0892988489512106E+02
   7.3000000000000000E+02   2.2246266892446820E+00   4.1340978545373690E+02
   7.4000000000000000E+02   2.2115835290761008E+00   4.1791817705553939E+02
   7.5000000000000000E+02   2.1987842494289120E+00   4.2245298445670471E+02
   7.6000000000000000E+02   2.1862229252345440E+00   4.2701401784256183E+02
   7.7000000000000000E+02   2.1720853409800429E+00   4.3160300265694895E+02
   7.8000000000000000E+02   2.1599886427768120E+00   4.3621976497942705E+02
   7.9000000000000000E+02   2.1430068337439154E+00   4.4086776231351672E+02
   8.0000000000000000E+02   2.1313943312743930E+00   4.4554681485073979E+02
   8.1000000000000000E+02   2.1199874777711814E+00   4.5025120153703131E+02
   8.2000000000000000E+02   2.1087808753957855E+00   4.5498074422886225E+02
   8.3000000000000000E+02   2.0961474026214790E+00   4.5973711085701569E+02
   8.4000000000000000E+02   2.0836069320583777E+00   4.6452212414603787E+02
   8.5000000000000000E+02   2.0697789092615180E+00   4.6933752595466234E+02
   8.6000000000000000E+02   2.0593773677639273E+00   4.7418116120869934E+02
   8.7000000000000000E+02   2.0476073766116789E+00   4.7905095389306564E+02
   8.8000000000000000E+02   2.0358719997467762E+00   4.8394877835604541E+02
   8.9000000000000000E+02   2.0228990436573668E+00   4.8887642865016801E+02
   9.0000000000000000E+02   2.0117319057725522E+00   4.9383354950423421E+02
   9.1000000000000000E+02   2.0022252731615930E+00   4.9881619164386831E+02
   9.2000000000000000E+02   1.9881934409732598E+00   5.0382825898179129E+02
   9.3000000000000000E+02   1.9775840252678516E+00   5.0887144239531005E+02
   9.4000000000000000E+02   1.9685712265875956E+00   5.1393969314879189E+02
   9.5000000000000000E+02   1.9551324237758254E+00   5.1903697785772067E+02
   9.6000000000000000E+02   1.9450386945808900E+00   5.2416499233481261E+02
   9.7000000000000000E+02   1.9364830976393796E+00   5.2931763561232765E+02
   9.8000000000000000E+02   1.9222368751299710E+00   5.3450077218496506E+02
   9.9000000000000000E+02   1.9139841940799143E+00   5.3971426019761338E+02
   1.0000000000000000E+03   1.9042896140170640E+00   5.4495226300620800E+02
   1.1000000000000000E+03   1.8068713132253249E+00   5.9888091562341640E+02
   1.2000000000000000E+03   1.7198528092467882E+00   6.5562531319927768E+02
   1.3000000000000000E+03   1.6331308716561690E+00   7.1531360847277369E+02
   1.4000000000000000E+03   1.5606646246595535E+00   7.7796728110837148E+02
   1.5000000000000000E+03   1.4958538880224617E+00   8.4343063833144174E+02
   1.6000000000000000E+03   1.4074748521313285E+00   9.1238097626821695E+02
   1.7000000000000000E+03   1.3514297004633864E+00   9.8490344459944788E+02
   1.8000000000000000E+03   1.3002877595989157E+00   1.0603543262731635E+03
   1.8439990000000000E+03   1.2517360027856776E+00   1.0948484650468608E+03
   1.8440010000000000E+03   1.2517350520892956E+00   1.0948500628284658E+03
   1.9000000000000000E+03   1.2257507422075422E+00   1.1400613498523962E+03
   2.0000000000000000E+03   1.1822300714021416E+00   1.2231456296712956E+03
   2.1000000000000000E+03   1.1420851445530129E+00   1.3092181549931693E+03
   2.2000000000000000E+03   1.1049187107848408E+00   1.3982499257815016E+03
   2.3000000000000000E+03   1.0704115364747853E+00   1.4902131298109150E+03
   2.4000000000000000E+03   1.0382894400842106E+00   1.5850802648805522E+03
   2.5000000000000000E+03   1.0083152894064671E+00   1.6828240578934976E+03
   2.6000000000000000E+03   9.8028288175303357E-01   1.7834174072393839E+03
   2.7000000000000000E+03   9.5391963471202956E-01   1.8868384093160835E+03
   2.8000000000000000E+03   9.2924369014445651E-01   1.9930609251010014E+03
   2.9000000000000000E+03   9.0603047180098539E-01   2.1020539058213321E+03
   3.0000000000000000E+03   8.8415570418208600E-01   2.2137908129950979E+03
   3.1000000000000000E+03   8.6350832736281702E-01   2.3282452594374299E+03
   3.2000000000000000E+03   8.4398868883590716E-01   2.4453910807136604E+03
   3.3000000000000000E+03   8.2536228069122064E-01   2.5652130392970134E+03
   3.4000000000000000E+03   8.0782977934855138E-01   2.6876867250813452E+03
   3.5000000000000000E+03   7.9118047067297437E-01   2.8127776589107743E+03
   3.6000000000000000E+03   7.7534715629170514E-01   2.9404616078034064E+03
   3.7000000000000000E+03   7.6026855369017421E-01   3.0707150847077924E+03
   3.8000000000000000E+03   7.4588872439363585E-01   3.2035154469262384E+03
   3.9000000000000000E+03   7.3215661922324560E-01   3.3388409738791343E+03
   4.0000000000000000E+03   7.1884011480449272E-01   3.4766888697314944E+03
   4.1000000000000000E+03   7.0626581792871002E-01   3.6170402409090548E+03
   4.2000000000000000E+03   6.9421240617556457E-01   3.7598591812574182E+03
   4.3000000000000000E+03   6.8264464125012236E-01   3.9051277976734305E+03
   4.4000000000000000E+03   6.7153042201899604E-01   4.0528291388999601E+03
   4.5000000000000000E+03   6.6084050896510127E-01   4.2029471507902881E+03
   4.6000000000000000E+03   6.5054823791779459E-01   4.3554666234739361E+03
   4.7000000000000000E+03   6.4044309081892825E-01   4.5103958240329439E+03
   4.8000000000000000E+03   6.3089049330378155E-01   4.6677198298600633E+03
   4.9000000000000000E+03   6.2168372581189457E-01   4.8273996339354280E+03
   5.0000000000000000E+03   6.1260012606672987E-01   4.9894456920302418E+03
   5.1000000000000000E+03   6.0402569852332455E-01   5.1538429376728718E+03
   5.2000000000000000E+03   5.9574431371358660E-01   5.3205494958061372E+03
   5.3000000000000000E+03   5.8752877193801201E-01   5.4895803341815126E+03
   5.4000000000000000E+03   5.7978615091072094E-01   5.6609212426231697E+03
   5.5000000000000000E+03   5.7207866488808290E-01   5.8345605034000955E+03
   5.6000000000000000E+03   5.6460657063773034E-01   6.0105183117009201E+03
   5.7000000000000000E+03   5.5757572535634470E-01   6.1887494706673378E+03
   5.8000000000000000E+03   5.5054285879628950E-01   6.3692428395513989E+03
   5.9000000000000000E+03   5.4371450828389079E-01   6.5520223156246566E+03
   6.0000000000000000E+03   5.3729981230316870E-01   6.7370402555499641E+03
   6.1000000000000000E+03   5.3085384734701391E-01   6.9242860529402078E+03
   6.2000000000000000E+03   5.2458676087974609E-01   7.1137870541227639E+03
   6.3000000000000000E+03   5.1849101041290391E-01   7.3055338597914570E+03
   6.4000000000000000E+03   5.1255947959880777E-01   7.4995172013730016E+03
   6.5000000000000000E+03   5.0678544293215200E-01   7.6957279373097272E+03
   6.6000000000000000E+03   5.0116253867822669E-01   7.8941570506392545E+03
   6.7000000000000000E+03   4.9568473679029124E-01   8.0947956483336056E+03
   6.8000000000000000E+03   4.9056066445543051E-01   8.2975904077408959E+03
   6.9000000000000000E+03   4.8535529636445263E-01   8.5025319171906922E+03
   7.0000000000000000E+03   4.8027872772274777E-01   8.7096554473021843E+03
   7.1000000000000000E+03   4.7532609255373337E-01   8.9189526044786890E+03
   7.2000000000000000E+03   4.7028262633846651E-01   9.1304625932833042E+03
